Created as New Dataset,
nm,%T
700.0,81.03
699.0,81.07
698.0,81.05
697.0,81.07
696.0,81.08
695.0,81.07
694.0,81.03
693.0,81.02
692.0,80.98
691.0,81.03
690.0,81.02
689.0,81.00
688.0,81.06
687.0,81.05
686.0,81.03
685.0,81.05
684.0,80.99
683.0,81.00
682.0,80.97
681.0,81.06
680.0,81.02
679.0,80.98
678.0,81.11
677.0,80.99
676.0,81.11
675.0,81.11
674.0,81.01
673.0,81.04
672.0,81.01
671.0,81.00
670.0,81.00
669.0,81.13
668.0,80.94
667.0,81.06
666.0,81.03
665.0,81.09
664.0,80.97
663.0,81.10
662.0,81.05
661.0,81.01
660.0,81.02
659.0,81.05
658.0,81.03
657.0,80.98
656.0,80.96
655.0,80.98
654.0,81.02
653.0,81.03
652.0,80.98
651.0,80.97
650.0,81.01
649.0,81.02
648.0,80.97
647.0,80.91
646.0,81.00
645.0,80.96
644.0,81.05
643.0,80.87
642.0,80.95
641.0,80.96
640.0,80.98
639.0,80.89
638.0,80.95
637.0,80.91
636.0,80.95
635.0,80.89
634.0,80.87
633.0,80.93
632.0,80.87
631.0,80.93
630.0,80.92
629.0,80.84
628.0,80.92
627.0,80.87
626.0,80.90
625.0,80.95
624.0,80.91
623.0,80.90
622.0,80.87
621.0,80.89
620.0,80.89
619.0,80.92
618.0,80.92
617.0,80.85
616.0,80.87
615.0,80.80
614.0,80.81
613.0,80.77
612.0,80.77
611.0,80.81
610.0,80.80
609.0,80.89
608.0,80.85
607.0,80.78
606.0,80.71
605.0,80.82
604.0,80.81
603.0,80.81
602.0,80.84
601.0,80.83
600.0,80.82
599.0,80.84
598.0,80.81
597.0,80.86
596.0,80.80
595.0,80.83
594.0,80.79
593.0,80.90
592.0,80.87
591.0,80.86
590.0,80.80
589.0,80.78
588.0,80.76
587.0,80.90
586.0,80.83
585.0,80.80
584.0,80.87
583.0,80.88
582.0,80.91
581.0,80.88
580.0,80.85
579.0,80.88
578.0,80.81
577.0,80.87
576.0,80.85
575.0,80.81
574.0,80.84
573.0,80.85
572.0,80.84
571.0,80.87
570.0,80.82
569.0,80.71
568.0,80.74
567.0,80.83
566.0,80.88
565.0,80.73
564.0,80.71
563.0,80.75
562.0,80.76
561.0,80.77
560.0,80.80
559.0,80.79
558.0,80.67
557.0,80.68
556.0,80.76
555.0,80.64
554.0,80.70
553.0,80.68
552.0,80.64
551.0,80.58
550.0,80.70
549.0,80.63
548.0,80.69
547.0,80.62
546.0,80.59
545.0,80.65
544.0,80.53
543.0,80.62
542.0,80.59
541.0,80.51
540.0,80.57
539.0,80.50
538.0,80.48
537.0,80.44
536.0,80.41
535.0,80.43
534.0,80.38
533.0,80.37
532.0,80.31
531.0,80.19
530.0,80.09
529.0,80.03
528.0,80.01
527.0,79.89
526.0,79.83
525.0,79.67
524.0,79.57
523.0,79.34
522.0,79.10
521.0,78.94
520.0,78.65
519.0,78.27
518.0,78.01
517.0,77.60
516.0,77.17
515.0,76.69
514.0,76.03
513.0,75.41
512.0,74.66
511.0,73.72
510.0,72.73
509.0,71.54
508.0,70.35
507.0,68.78
506.0,67.15
505.0,65.36
504.0,63.39
503.0,61.17
502.0,58.70
501.0,56.06
500.0,53.14
499.0,49.99
498.0,46.70
497.0,43.26
496.0,39.69
495.0,35.94
494.0,32.20
493.0,28.38
492.0,24.70
491.0,21.13
490.0,17.69
489.0,14.46
488.0,11.63
487.0,9.01
486.0,6.85
485.0,5.03
484.0,3.64
483.0,2.49
482.0,1.70
481.0,1.16
480.0,0.78
479.0,0.54
478.0,0.37
477.0,0.23
476.0,0.23
475.0,0.24
474.0,0.25
473.0,0.20
472.0,0.24
471.0,0.25
470.0,0.19
469.0,0.21
468.0,0.20
467.0,0.28
466.0,0.26
465.0,0.30
464.0,0.29
463.0,0.27
462.0,0.16
461.0,0.18
460.0,0.23
459.0,0.15
458.0,0.36
457.0,0.29
456.0,0.21
455.0,0.14
454.0,0.26
453.0,0.23
452.0,0.33
451.0,0.10
450.0,0.14
449.0,0.35
448.0,0.25
447.0,0.27
446.0,0.27
445.0,0.19
444.0,0.22
443.0,0.26
442.0,0.14
441.0,0.38
440.0,0.29
439.0,0.23
438.0,0.34
437.0,0.50
436.0,0.32
435.0,0.42
434.0,0.16
433.0,0.12
432.0,0.29
431.0,0.39
430.0,0.22
429.0,0.28
428.0,0.31
427.0,0.39
426.0,0.45
425.0,0.24
424.0,0.33
423.0,0.25
422.0,0.25
421.0,0.28
420.0,0.30
419.0,0.31
418.0,0.34
417.0,0.34
416.0,0.35
415.0,0.39
414.0,0.37
413.0,0.33
412.0,0.30
411.0,0.35
410.0,0.36
409.0,0.41
408.0,0.35
407.0,0.43
406.0,0.41
405.0,0.51
404.0,0.61
403.0,0.70
402.0,1.04
401.0,1.59
400.0,2.58
399.0,3.70
398.0,5.68
397.0,7.95
396.0,10.92
395.0,14.28
394.0,18.06
393.0,21.90
392.0,25.54
391.0,29.04
390.0,32.09
389.0,34.41
388.0,35.93
387.0,37.04
386.0,37.01
385.0,38.08
384.0,35.78
383.0,33.82
382.0,31.82
381.0,29.80
380.0,27.01
379.0,24.54
378.0,20.44
377.0,16.51
376.0,14.24
375.0,11.82
374.0,9.02
373.0,7.16
372.0,5.39
371.0,3.46
370.0,2.30
369.0,2.09
368.0,1.03
367.0,0.89
366.0,0.82
365.0,1.28
364.0,0.05
363.0,0.01
362.0,0.57
361.0,0.42
360.0,0.66
359.0,0.31
358.0,0.28
357.0,0.26
356.0,0.55
355.0,0.13
354.0,0.36
353.0,0.10
352.0,0.73
351.0,0.13
350.0,0.32
349.0,0.74
348.0,0.16
347.0,0.98
346.0,0.30
345.0,0.94
344.0,0.69
343.0,0.17
342.0,1.17
341.0,0.73
340.0,0.45
339.0,0.41
338.0,0.49
337.0,0.86
336.0,0.24
335.0,-0.45
334.0,0.06
333.0,0.18
332.0,0.93
331.0,0.47
330.0,-0.33
329.0,-0.03
328.0,1.35
327.0,0.62
326.0,0.13
325.0,0.37
324.0,1.04
323.0,0.54
322.0,0.18
321.0,0.29
320.0,0.46
319.0,0.34
318.0,-0.12
317.0,0.69
316.0,0.48
315.0,0.07
314.0,-0.01
313.0,-0.25
312.0,0.26
311.0,0.47
310.0,0.31
309.0,0.33
308.0,-0.39
307.0,0.80
306.0,0.84
305.0,-0.03
304.0,0.08
303.0,-0.05
302.0,-0.05
301.0,0.35
300.0,-0.44
299.0,0.15
298.0,0.02
297.0,-0.17
296.0,0.07
295.0,0.19
294.0,0.38
293.0,-0.16
292.0,0.86
291.0,0.48
290.0,0.63
289.0,-0.24
288.0,0.19
287.0,0.42
286.0,-0.04
285.0,0.31
284.0,-0.04
283.0,0.92
282.0,-0.18
281.0,0.12
280.0,0.24
279.0,0.54
278.0,0.15
277.0,0.48
276.0,-0.21
275.0,0.42
274.0,0.21
273.0,0.09
272.0,0.11
271.0,0.20
270.0,0.74
269.0,-0.57
268.0,0.60
267.0,0.51
266.0,-0.27
265.0,0.40
264.0,0.54
263.0,0.32
262.0,-0.07
261.0,0.44
260.0,0.26
259.0,0.09
258.0,0.26
257.0,-0.10
256.0,0.22
255.0,0.02
254.0,0.07
253.0,-0.22
252.0,-0.03
251.0,-0.03
250.0,0.03
249.0,0.16
248.0,0.00
247.0,0.30
246.0,0.28
245.0,0.03
244.0,0.34
243.0,0.12
242.0,0.18
241.0,0.15
240.0,0.22
239.0,0.44
238.0,0.26
237.0,0.33
236.0,0.34
235.0,0.21
234.0,0.25
233.0,0.34
232.0,0.39
231.0,0.00
230.0,0.17
229.0,0.00
228.0,0.53
227.0,0.82
226.0,0.48
225.0,0.49
224.0,0.10
223.0,0.21
222.0,0.39
221.0,0.11
220.0,0.53
219.0,0.18
218.0,-0.32
217.0,0.46
216.0,1.24
215.0,0.07
214.0,0.74
213.0,-0.23
212.0,1.06
211.0,0.68
210.0,0.90
209.0,0.94
208.0,0.70
207.0,0.64
206.0,2.37
205.0,0.96
204.0,1.80
203.0,2.35
202.0,1.97
201.0,1.29
200.0,1.22
