Created as New Dataset,
nm,%T
700.0,77.64
699.0,77.70
698.0,77.69
697.0,77.68
696.0,77.63
695.0,77.69
694.0,77.62
693.0,77.64
692.0,77.64
691.0,77.62
690.0,77.62
689.0,77.65
688.0,77.65
687.0,77.59
686.0,77.57
685.0,77.66
684.0,77.61
683.0,77.52
682.0,77.57
681.0,77.62
680.0,77.53
679.0,77.57
678.0,77.62
677.0,77.49
676.0,77.65
675.0,77.60
674.0,77.64
673.0,77.48
672.0,77.57
671.0,77.54
670.0,77.62
669.0,77.57
668.0,77.52
667.0,77.59
666.0,77.59
665.0,77.51
664.0,77.53
663.0,77.54
662.0,77.57
661.0,77.50
660.0,77.52
659.0,77.54
658.0,77.47
657.0,77.45
656.0,77.49
655.0,77.43
654.0,77.48
653.0,77.53
652.0,77.48
651.0,77.45
650.0,77.53
649.0,77.47
648.0,77.46
647.0,77.34
646.0,77.40
645.0,77.43
644.0,77.39
643.0,77.46
642.0,77.44
641.0,77.40
640.0,77.37
639.0,77.39
638.0,77.42
637.0,77.41
636.0,77.40
635.0,77.37
634.0,77.35
633.0,77.39
632.0,77.32
631.0,77.41
630.0,77.38
629.0,77.27
628.0,77.29
627.0,77.32
626.0,77.33
625.0,77.40
624.0,77.30
623.0,77.32
622.0,77.33
621.0,77.33
620.0,77.28
619.0,77.30
618.0,77.30
617.0,77.29
616.0,77.27
615.0,77.22
614.0,77.17
613.0,77.18
612.0,77.24
611.0,77.20
610.0,77.18
609.0,77.21
608.0,77.21
607.0,77.17
606.0,77.10
605.0,77.16
604.0,77.11
603.0,77.10
602.0,77.16
601.0,77.15
600.0,77.17
599.0,77.07
598.0,77.09
597.0,77.15
596.0,77.06
595.0,77.08
594.0,77.06
593.0,77.20
592.0,77.10
591.0,77.12
590.0,77.09
589.0,77.06
588.0,77.02
587.0,77.11
586.0,77.09
585.0,77.10
584.0,77.12
583.0,77.07
582.0,77.07
581.0,77.09
580.0,77.01
579.0,77.05
578.0,77.00
577.0,77.05
576.0,76.98
575.0,76.97
574.0,76.97
573.0,76.98
572.0,76.95
571.0,77.00
570.0,76.91
569.0,77.01
568.0,76.85
567.0,76.91
566.0,77.03
565.0,76.87
564.0,76.86
563.0,76.90
562.0,76.81
561.0,76.78
560.0,76.92
559.0,76.80
558.0,76.78
557.0,76.84
556.0,76.87
555.0,76.76
554.0,76.76
553.0,76.80
552.0,76.78
551.0,76.80
550.0,76.82
549.0,76.78
548.0,76.74
547.0,76.75
546.0,76.75
545.0,76.77
544.0,76.68
543.0,76.76
542.0,76.69
541.0,76.65
540.0,76.72
539.0,76.63
538.0,76.68
537.0,76.56
536.0,76.58
535.0,76.65
534.0,76.64
533.0,76.62
532.0,76.59
531.0,76.54
530.0,76.58
529.0,76.51
528.0,76.57
527.0,76.57
526.0,76.58
525.0,76.51
524.0,76.51
523.0,76.49
522.0,76.47
521.0,76.49
520.0,76.48
519.0,76.42
518.0,76.44
517.0,76.41
516.0,76.33
515.0,76.38
514.0,76.38
513.0,76.39
512.0,76.35
511.0,76.36
510.0,76.38
509.0,76.31
508.0,76.35
507.0,76.26
506.0,76.30
505.0,76.27
504.0,76.28
503.0,76.29
502.0,76.23
501.0,76.30
500.0,76.24
499.0,76.17
498.0,76.21
497.0,76.14
496.0,76.19
495.0,76.14
494.0,76.09
493.0,76.13
492.0,76.18
491.0,76.13
490.0,76.07
489.0,76.12
488.0,76.03
487.0,75.94
486.0,76.00
485.0,76.06
484.0,75.96
483.0,75.99
482.0,75.91
481.0,75.98
480.0,75.97
479.0,75.87
478.0,76.00
477.0,75.85
476.0,75.93
475.0,75.81
474.0,75.82
473.0,75.84
472.0,75.76
471.0,75.79
470.0,75.82
469.0,75.69
468.0,75.83
467.0,75.91
466.0,75.76
465.0,75.75
464.0,75.73
463.0,75.74
462.0,75.59
461.0,75.53
460.0,75.64
459.0,75.57
458.0,75.65
457.0,75.49
456.0,75.73
455.0,75.62
454.0,75.43
453.0,75.51
452.0,75.36
451.0,75.39
450.0,75.39
449.0,75.34
448.0,75.36
447.0,75.23
446.0,75.27
445.0,75.20
444.0,75.34
443.0,75.39
442.0,75.29
441.0,75.28
440.0,75.25
439.0,75.12
438.0,75.22
437.0,75.30
436.0,75.00
435.0,75.01
434.0,75.06
433.0,74.84
432.0,75.02
431.0,75.09
430.0,75.11
429.0,74.87
428.0,75.00
427.0,74.97
426.0,74.99
425.0,74.71
424.0,74.83
423.0,74.69
422.0,74.83
421.0,74.55
420.0,74.65
419.0,74.64
418.0,74.57
417.0,74.63
416.0,74.59
415.0,74.56
414.0,74.54
413.0,74.43
412.0,74.49
411.0,74.41
410.0,74.49
409.0,74.27
408.0,74.35
407.0,74.25
406.0,74.18
405.0,74.22
404.0,74.28
403.0,74.22
402.0,74.09
401.0,73.99
400.0,74.02
399.0,74.03
398.0,73.93
397.0,73.92
396.0,73.80
395.0,73.98
394.0,73.78
393.0,73.71
392.0,73.66
391.0,73.77
390.0,73.73
389.0,73.88
388.0,73.51
387.0,73.44
386.0,73.34
385.0,73.59
384.0,72.76
383.0,73.11
382.0,74.44
381.0,74.49
380.0,72.93
379.0,72.90
378.0,73.56
377.0,73.01
376.0,73.53
375.0,73.04
374.0,73.30
373.0,72.76
372.0,72.56
371.0,72.99
370.0,73.29
369.0,72.87
368.0,72.35
367.0,72.12
366.0,72.35
365.0,72.44
364.0,72.07
363.0,71.90
362.0,72.89
361.0,71.37
360.0,71.65
359.0,71.07
358.0,71.48
357.0,71.25
356.0,71.90
355.0,71.09
354.0,71.07
353.0,70.82
352.0,70.86
351.0,70.54
350.0,70.78
349.0,70.44
348.0,70.96
347.0,69.77
346.0,69.16
345.0,69.48
344.0,70.57
343.0,70.75
342.0,68.14
341.0,69.17
340.0,69.43
339.0,67.49
338.0,67.51
337.0,68.41
336.0,67.33
335.0,66.68
334.0,67.40
333.0,66.71
332.0,66.82
331.0,65.33
330.0,65.14
329.0,64.88
328.0,64.07
327.0,65.00
326.0,64.03
325.0,62.37
324.0,61.64
323.0,61.15
322.0,60.97
321.0,60.62
320.0,58.88
319.0,57.60
318.0,55.63
317.0,53.69
316.0,50.89
315.0,48.04
314.0,44.66
313.0,38.80
312.0,32.47
311.0,26.74
310.0,19.35
309.0,12.30
308.0,6.40
307.0,3.17
306.0,1.46
305.0,0.74
304.0,0.22
303.0,0.14
302.0,0.03
301.0,0.56
300.0,0.05
299.0,0.87
298.0,1.16
297.0,1.02
296.0,0.93
295.0,0.85
294.0,0.86
293.0,1.01
292.0,0.04
291.0,0.11
290.0,0.13
289.0,0.75
288.0,0.37
287.0,0.49
286.0,0.17
285.0,0.74
284.0,0.39
283.0,0.70
282.0,0.58
281.0,0.26
280.0,-0.57
279.0,0.06
278.0,0.48
277.0,0.65
276.0,0.13
275.0,-0.11
274.0,0.73
273.0,-0.06
272.0,0.26
271.0,1.04
270.0,0.42
269.0,0.51
268.0,1.02
267.0,0.42
266.0,0.36
265.0,0.63
264.0,0.16
263.0,0.39
262.0,0.48
261.0,0.28
260.0,0.12
259.0,1.06
258.0,0.78
257.0,0.33
256.0,0.17
255.0,0.32
254.0,0.54
253.0,0.07
252.0,0.18
251.0,0.31
250.0,0.21
249.0,0.11
248.0,0.35
247.0,-0.11
246.0,0.44
245.0,0.25
244.0,0.31
243.0,0.49
242.0,0.24
241.0,0.12
240.0,0.62
239.0,0.54
238.0,0.36
237.0,0.30
236.0,0.55
235.0,0.46
234.0,0.58
233.0,0.34
232.0,0.23
231.0,0.68
230.0,0.12
229.0,0.30
228.0,0.71
227.0,0.73
226.0,0.57
225.0,0.00
224.0,-0.05
223.0,1.06
222.0,0.17
221.0,-0.23
220.0,0.82
219.0,0.31
218.0,0.83
217.0,0.40
216.0,1.10
215.0,0.00
214.0,0.37
213.0,0.39
212.0,0.24
211.0,1.28
210.0,1.26
209.0,0.38
208.0,-0.50
207.0,0.64
206.0,1.47
205.0,2.15
204.0,0.64
203.0,0.97
202.0,0.30
201.0,2.42
200.0,1.05
